# E_R (keV)  Rate (/t y kev)
0.5132926189537429 1.5847661030378093
0.5376695524666623 1.583610832810713
0.5632033058116978 1.583928834642203
0.5899496488540559 1.584246900331026
0.6179661670867186 1.5845650298900058
0.6490860981291848 1.610373591064504
0.6753447358074613 1.7211680958051847
0.6987790231030602 1.865383848125587
0.7198527712054315 1.9980127181803962
0.743605127133192 2.1535028268154064
0.7788957699402765 2.192335154600872
0.8158852784216588 2.192775393187244
0.8546155206720842 2.217830117763764
0.8951634957457034 2.274683948886639
0.9339996911903193 2.359138886459265
0.9745162457889096 2.4535656743204655
1.0207498524767344 2.5211477303595755
1.069176902728585 2.590591295281979
1.1199049287853016 2.6570008181893785
1.1730688635871067 2.684861611889513
1.2287775249426922 2.685400753762117
1.2871317726285985 2.6859400038987564
1.3482572446849592 2.6864793623211765
1.4122855456618453 2.6870188290511186
1.4793545299668929 2.687558404110333
1.5496085986690218 2.6880980875205696
1.623199010397263 2.6886378793035917
1.7002842070040756 2.6891777794811587
1.7810301546943037 2.689717788075037
1.8656107013542425 2.690257905106998
1.9542261136837462 2.6758246729916944
2.047031680482737 2.67636200017406
2.144244553666887 2.6768994352560584
2.2460740347925845 2.6774369782593572
2.3527393650795148 2.6779746292056252
2.4644701974420578 2.6785123881165434
2.581507090937302 2.67905025501379
2.704102028694244 2.679588229919048
2.8325189604392684 2.680126312854008
2.967034370785993 2.68066450384036
3.10795231740464 2.673732364441555
3.2555630977412755 2.6668181514026443
3.4101687374981964 2.6673536700028118
3.5721165491396767 2.6678892961394345
3.7417552100365246 2.668425029834104
3.919449956135242 2.6689608711084243
4.105583368319435 2.6694968199839955
4.300556196115274 2.670032876482425
4.504788220514461 2.6705690406253213
4.736883249679597 2.7105652681135117
4.942266020570903 2.8540124416537527
5.162330699686065 2.978136873905962
5.422195423312605 3.0614245200115655
5.679447393297671 3.1428253904563106
5.949208592487067 3.1288727531954126
6.231744239715248 3.126591852859899
6.527687760407916 3.127219697728683
6.83768554328962 3.1278476686737786
7.162405020731293 3.12847576572051
7.502591808037877 3.117484866815373
7.858911816512794 3.1123163477914972
8.232128999748523 3.1129413260236913
8.623150291132003 3.0962403975980077
9.03266091262956 3.0968621476497056
9.425107508989191 3.0974321948758705
10.143631178077666 3.0840422828767173
10.625365404670656 3.0817940632677265
11.130012297083423 3.0738246116581065
11.658627163897325 3.0658757688749247
12.212291601429602 3.066491421464199
12.792289015424279 3.06140744514178
13.39987371495724 3.0506521693280204
14.036229388665502 3.0512647648956848
14.702942038804785 3.0348947311850187
15.40120386313183 3.0326823393887916
16.13272700884873 3.0192186844439366
16.833497320969812 3.0366725813668483
17.977581746366628 2.9898887114556345
18.831360465896083 2.987709128358766
19.725747357742804 2.9799829783197733
20.662644754836208 2.969513761325155
21.64407471474162 2.956330544567768
22.672085308965134 2.94594442283349
23.748996042037813 2.930139432697483
24.876982331826344 2.9198453250570786
26.058624378180575 2.904180356565647
27.29635144468701 2.8912871887878753
28.59295639388796 2.8731020963354386
29.95110502517778 2.857687905239244
31.373813517496885 2.839714139451281
32.86369487884002 2.8429271793683757
34.40535720917169 2.8442469530615764
35.504700581075994 2.8972720839777915
37.77115479098012 2.865884101735423
39.565446317891436 2.84256647231146
41.4450385720728 2.81681759435438
43.41392255352525 2.79130195798462
45.4764105906078 2.7634461437695848
47.63688233091047 2.735868316815427
49.90014733103752 2.7035322452781405
52.27086082679992 2.674064190089804
54.75437453338989 2.640002154993498
57.35561938321471 2.6136562380473114
60.08109440732093 2.5707821588531496
62.20981276894866 2.5402697744747296
66.4381958416555 2.4941649070891496
75.1968435716713 2.3316976212152656
78.7695035747665 2.304138567799017
82.51305373660017 2.2579262997519116
86.43505308205472 2.2044248020325288
90.54389313599924 2.1461945289578317
94.84849479137537 2.083680591765624
97.83143213809397 2.0417532156775886
